Time (s),Voltage (V),Current (A),Power (W),Power Factor,Speed (RPM),Torque (Nm),Temperature (°C),Vibration (m/s²)
0,1.4069235758069523,-0.07556584395919477,-0.00018621835880730273,0.0017515657743136341,3.469577628586352,-0.008969489756877058,45.23257266470978,0.008008136789821887
1,15.795208960165176,1.9146782220128733,4.651602379936677,0.15380888037184584,80.90327912436135,0.5605667453216282,45.486878793426435,0.0635717687615643
2,34.038486961929735,4.056434898036175,41.57031782267861,0.3010707659337175,159.37507790489613,2.600313920373865,45.056215987418966,0.045692222891636304
3,49.168681630066665,6.0452837331871265,136.88581402699126,0.4605249777113783,229.36516297685776,5.821882362195954,45.30239735925903,0.04879737790265404
4,67.46449027945756,7.968767991624746,320.97021231862686,0.5970329542639465,311.9821631815523,9.80710633908242,44.784787816446475,0.018979558481914557
5,81.86693440349994,8.057210751597953,399.5717164624901,0.605761248821948,391.78748032180664,9.744810188429767,45.217552194542684,0.04397308921803539
6,96.92977852682907,7.593742997646088,478.1108705483332,0.6495543609933221,467.11014698527487,9.623538546379748,45.124532672842506,0.07711950152912309
7,115.61353719961436,7.152995589691278,563.4750140321302,0.6813621696118198,540.3949974859665,9.990364036847753,45.41135996567861,0.1401350733141464
8,131.24177284601274,6.812618473715215,616.5709663810353,0.6895994624136114,620.7399596291015,9.334876979174846,45.040340166130335,0.08882903955381342
9,148.25168617955313,6.400824623834531,721.2660862503698,0.7600811155743471,696.6182434074058,9.857501198595255,45.626203898722004,0.0917775956282311
10,162.714863746018,5.8108866169883004,730.6401155722452,0.7727408743406493,770.2983315292241,9.25537607327003,45.02287963731676,0.1443660637614537
11,181.6788836012831,5.385569297828909,794.6908892631353,0.8121984625991756,854.9969443937648,8.972511824190287,45.861222099064285,0.11743271058846624
12,196.6167462890578,4.995486426329749,852.2570095058467,0.8677053869439705,929.8720332953188,8.734261491437351,45.74268191440244,0.1809269959287546
13,214.52740205534403,4.52510426793366,870.6598401103679,0.896885801023886,1008.0197288207368,8.090311717103154,45.3897878056091,0.16646840651426925
14,231.71849035686776,4.196769929756527,897.9920226092761,0.9234143657572619,1084.683135448145,7.823057467425927,45.43306263098329,0.17573149973971652
15,228.05571128454855,4.1733720720350815,880.703688143356,0.9253408964134845,1160.1003567496573,7.272315782399998,45.866709429778616,0.2232480612020745
16,229.83805073576514,4.206565679784121,898.2929855669516,0.9291127171765626,1237.2300739739396,6.963167730823785,45.931349427922854,0.2032446434824034
17,230.75439721238087,4.127641668403664,868.7851847381675,0.9121377559020786,1319.4925264124818,6.269686107973044,45.32226197822728,0.22862659532341897
18,229.64361816414186,4.120383321380835,860.6649630093841,0.909582554613496,1387.962166553099,5.723286009071653,45.23082936373129,0.24083626346546166
19,231.69139105444364,4.1542350420908125,898.3228978173964,0.9333220105958256,1474.745976613683,5.812060102429395,45.234975453590785,0.17479101085150867
20,229.84915590909856,4.285644876368215,902.4147128029291,0.9161088383935622,1467.3553895510292,5.753985144488469,45.72648189782484,0.22324269675523134
21,228.6727765132186,4.139156938900657,879.5523148251485,0.9292558797320918,1472.203853143084,5.644353994083372,45.57088388285959,0.2362667207174609
22,228.23757163181457,4.158846292881456,858.9894972444702,0.9049567970466326,1467.0235217633792,5.4222761361940295,45.60662532856385,0.1986933690019953
23,230.76068231235183,4.115563370431885,879.928429308873,0.9265230790301896,1470.6565612465754,5.750849751563367,45.599058313914156,0.19282934044174546
24,228.62776613440928,4.107122734124803,879.6894709119789,0.9368342065966203,1470.4565622410712,5.807846089026719,45.901627396061656,0.24678472026621734
25,230.8442652170344,4.122821273652833,862.804169257361,0.9065643499598167,1471.730648551493,5.443008160268422,45.999069524733535,0.22521342150991513
26,230.8801807560444,4.125740710402842,891.3584701817433,0.9357585663100373,1468.6579297976768,5.913869174384819,45.46843407231734,0.20883943940186264
27,229.1290029331891,4.197402586055354,877.8315421787586,0.9127471610365918,1466.5506563473577,5.6329198251072,45.92910646661188,0.2039714017059182
28,229.42364496713884,4.140266895817318,872.1872219567,0.9182125117413018,1469.381012779121,5.738835208889884,46.25106478106235,0.21792406921119795
29,230.16499173399802,4.234703980259526,915.3111929764689,0.9390883400848202,1469.7801372971921,5.920982856748528,45.92987810050934,0.1805150667651928
30,228.3392845540435,4.233458388044481,898.0401230604418,0.9290087606066987,1468.3941333907549,5.901847111686329,46.27129257249265,0.15931663685320863
31,229.04748518253314,4.18781300725332,872.118626118936,0.9092069622210476,1469.1892181012606,5.851160733651865,45.87128966764615,0.24215354387256982
32,231.65531956539232,4.143163393644079,893.7434763701693,0.9311905210037199,1473.2202751216228,5.992038810262604,46.232552863281626,0.1895332691131959
33,228.1725135127744,4.135903206203846,873.9496061989344,0.9260889412734069,1471.5983505306467,5.535856759139277,46.44742519734267,0.15876283173863587
34,230.58025121356866,4.2735168381315605,902.9098645357699,0.916298277928804,1468.504439620019,5.942525252688878,46.10484370799722,0.20408858120083903
35,231.21430952226538,4.296275882498718,905.9724050260643,0.912027848869237,1471.2353579138332,5.911450428387647,45.80078867419108,0.1837727713557696
36,228.07073661831953,4.2100179124248776,867.7140391824338,0.9036975716952508,1473.6231779911957,5.7593450129746,46.39762915786459,0.2277725605107208
37,229.42625362920134,4.286487021074195,898.8774894698156,0.9140203772197987,1471.8000949636798,5.912775112118898,46.51935730305686,0.1597768768386132
38,231.4890156316656,4.180595384134133,898.0376891688469,0.9279531253278421,1465.2765802359813,5.991222627924088,45.797830991209835,0.1680353068530382
39,231.25673345848193,4.280733857644604,916.33784820152,0.9256419112846435,1470.6254956935575,6.005581774293095,45.87382841003937,0.1990451766670304
40,231.99029093415038,4.232703788547574,904.3740920356514,0.9210016876449674,1474.0221206144147,5.742281376883643,46.446528137953585,0.15676996342595395
41,229.01818944572514,4.103684797113029,882.4852685678668,0.9389954592047921,1466.0395840102804,5.880635623907335,46.216664012449186,0.16944988683519993
42,229.8425988135904,4.1033068769118834,865.6343458828625,0.917846292613648,1471.8608328362945,5.4161787618869885,45.94292602425416,0.1874140531535888
43,231.96325313734548,4.142000884199534,903.0406824580145,0.9398919670824556,1471.3911173372737,5.962431647965148,46.510040943710315,0.15594832923959911
44,228.17261820509992,4.133123762671585,880.7928940194532,0.9339677201317375,1468.3302936147893,5.59664291039578,46.70697305224026,0.22017861409697514
45,229.51057239111378,4.104646206763472,853.1728214552339,0.9056462357041014,1465.6181113805692,5.3680752328308445,46.566342973033905,0.15607506717256675
46,230.6317722202117,4.247399229706618,903.5200729506129,0.9223496457307683,1473.2973948790027,6.00893149220724,46.087627000169824,0.209949414620403
47,230.30429869192767,4.200255837596237,878.0104290934007,0.9076572608935154,1473.2174766432859,5.817494120325035,46.08648337250281,0.2058313005152185
48,228.102280502803,4.215850438841487,877.6221051497342,0.91262577611553,1466.201693895591,5.910657939144588,46.46121012217788,0.20543529517774245
49,230.11612719907598,4.2175701243652055,886.4094693085906,0.9133243118558361,1468.9790733015952,5.622177906167214,46.84425165290494,0.23097660403214199
50,231.69858877067148,4.235183485119847,896.6097734907352,0.9137088881013131,1470.8613498800357,5.9950125001514145,46.44808040261638,0.15535942655854873
51,228.2398627945617,4.120351512024146,881.9060548657857,0.937770483180209,1465.370217237705,5.683192068963751,46.59845233645498,0.22123358806478072
52,230.45990005989353,4.272807642547204,925.3614513654462,0.9397291371552916,1465.973659806395,6.104643959567851,46.544023440203254,0.24347201916432756
53,231.10627310049207,4.122349668810033,870.487775593785,0.9137052400066401,1471.2710073849796,5.531342786060566,46.36039242655804,0.18212429470509856
54,228.55930039515346,4.118100057324977,870.0116250347866,0.9243347132210888,1474.2754486295544,5.588483315380613,46.465876169734436,0.17209383977849974
55,228.10772580782202,4.28877761657404,904.5430576227508,0.9246039031656962,1469.8169177665977,5.841785696833405,47.264472756228564,0.20418381198696717
56,228.617023283012,4.2657810087340025,895.3403840117995,0.918081109700342,1473.5574558972116,5.638293256845282,46.769422594938085,0.23207938166283837
57,231.12485026908075,4.214756215071725,902.5671865374999,0.9265320309788602,1470.241296646359,6.061988668779551,46.5751191597604,0.21390857200400454
58,228.97977852393097,4.168603867417466,880.999445512742,0.9229706204456227,1472.943833489896,5.6340900523495145,47.17060281394412,0.2013759162461375
59,231.4631686885443,4.196005522721214,877.3717153602139,0.9033700419831457,1469.7782298508366,5.850426454318977,46.98821407040171,0.1759599992841021
60,228.45643974508198,4.27645217243673,905.2432595585492,0.9265700880137209,1470.918446291294,5.918781192422366,46.53429320368722,0.24672387886756508
61,230.88029359869734,4.168977703883607,873.9343055983269,0.9079508699080264,1466.7950994622806,5.810628147731825,47.04564695083237,0.214365914259127
62,229.1743512668186,4.129944710964241,868.9132662975421,0.9180496717476182,1471.918785008999,5.826417148033205,47.488841624864016,0.17930520756113702
63,230.08458245030465,4.161346545197135,887.9632065887236,0.9274138307777657,1467.6975642712887,5.617484747357638,47.46336627231359,0.18646210241899044
64,230.40105382120439,4.206926818498152,911.0262525288074,0.9398996188669541,1466.205307544551,6.037743863798391,47.571229155076004,0.20636344153113295
65,231.82395900417345,4.268851151563772,912.5724404338313,0.9221424585166247,1465.0562211111942,6.002309181955652,47.656213683048335,0.22092068384029734
66,229.79125073164627,4.223065815090029,880.8619646496609,0.9077087437110307,1465.0084753462124,5.79533697475049,47.315804043005684,0.17369828777434437
67,231.30954003170328,4.154792320805871,897.8142985120649,0.9342081514368696,1474.188277998991,5.8244140219274225,47.61044276055188,0.2187336431742986
68,228.39457886074823,4.151484843116447,866.0230369956253,0.9133562328069347,1470.7316008492605,5.660382888292671,46.95017828480189,0.24626123240197956
69,228.0382154989163,4.2729399748766745,879.7540429356329,0.9028733735440228,1469.666111123603,5.7303965621819986,46.87015796097798,0.15767998800107233
70,230.01270757266673,4.1339504835552745,859.848691187961,0.9042841816499521,1468.7647323396739,5.698567492631883,47.712017520251464,0.24487232435539624
71,229.2215512358779,4.299024668651046,922.793571796591,0.9364383177440082,1465.8823328931137,6.070546516956876,47.72773961118101,0.2252149604373415
72,229.25975987989307,4.201702449917973,895.9152918107472,0.9300661153590211,1470.4233716950923,5.961533704288644,47.27256495725072,0.16627917689280552
73,229.7917785400223,4.178846700763448,872.2506727371062,0.9083440736581708,1468.1633720418822,5.865318283395513,47.78244053495104,0.18369241300333203
74,231.63087182411724,4.233816114860499,912.6843447033447,0.9306623990041328,1473.0823128081308,6.006103689183735,46.98403992990924,0.23188835405630445
75,229.99709794993925,4.1146412714218865,888.2653280580381,0.9386169147737338,1472.7954369121248,5.793281647886548,47.83191086484018,0.21029043273600526
76,230.80726024011196,4.229588419300724,913.9846128371834,0.9362488779846161,1473.1008582891948,5.842673052560179,47.20444595715203,0.1759926492701561
77,229.66805845574868,4.256130794791444,902.2086967960261,0.9229782019119916,1473.8781520934958,5.964379938677584,47.999618526199484,0.17955518846180368
78,228.68762443507075,4.177561967998125,886.6215548059436,0.9280528770303051,1471.4061889198535,5.705033952013551,47.42034309509226,0.2303088719698555
79,229.85924174426768,4.166666299525798,896.1897564700532,0.935727268882738,1470.2060230934724,5.942791994493177,48.1285907476912,0.15213254491201794
80,229.43612643247988,4.255525566252198,891.1655321187559,0.9127322058988965,1465.3158937657633,5.968765596171395,48.12815975296456,0.21644960479518424
81,228.55960569630267,4.16543970636609,883.374119062764,0.9278640332832165,1467.000081221581,5.91936562788103,47.49988337835395,0.17719061260771268
82,230.3091581533787,4.240436644545557,899.9236008371423,0.9214756314977444,1473.8496204125,6.002086021525314,47.34945845321441,0.16941615906387594
83,229.65198513811816,4.290619889909043,888.0961943096398,0.9013008143814539,1469.2151313950283,5.906727110784578,48.01040548640769,0.23463127792609634
84,231.3368267085072,4.2123473586626075,879.4322336730145,0.902471361020909,1472.099917680291,5.7266587841765615,47.90575011012018,0.18872245148500627
85,229.3407919850589,4.151624293889395,875.6693075474632,0.9196885408172181,1467.8182701431226,5.505511268751783,47.71151957765737,0.18566494324617083
86,228.7236458088296,4.148896008958589,854.7592604447922,0.900741557361778,1471.9889349080345,5.582854430118466,48.13134272269618,0.1888249913587166
87,230.06266907680376,4.107908368550079,862.1853535888741,0.9122917330323603,1473.842747243301,5.665926316104233,48.35338627424421,0.22881784640917407
88,228.03828065744835,4.2219566039706224,880.5708792463306,0.9146244274700707,1465.605043114288,5.60680094784681,47.46644533060284,0.19180887025276216
89,228.79786825296546,4.256263245336933,888.2994668948429,0.9121766416564285,1471.7793188414153,5.707346019754965,47.78362195771656,0.15815330857844276
90,230.44269230295964,4.230179086663385,892.2416669412224,0.9152944020391243,1468.9473025846203,5.961685602791137,48.06896351208888,0.16170236093879647
91,229.40263460338673,4.142418373338147,856.6900258657242,0.901511663601674,1465.9211209668813,5.551628598318846,48.47711592708972,0.15908790723622956
92,228.70638452514743,4.271664606078243,907.5125605333702,0.928917639461831,1467.4288962295147,6.061003674333314,47.60296320350308,0.17387821763985215
93,231.43388811603788,4.224519624650845,890.2357007537616,0.9105435516229778,1467.4280554649572,5.636893091741255,47.740663139407566,0.22225969761746572
94,229.6683991646815,4.239477055988533,877.0061483327106,0.9007185469966614,1473.8985613394889,5.715235017276812,48.26970203332609,0.2461337976837722
95,230.03032250577303,4.122274614159457,872.9303113535719,0.9205715857312148,1472.967829651394,5.847294424452937,48.456895852015016,0.23931360146629616
96,231.70902097150764,4.219981846317681,892.0201231105335,0.9122652390720309,1474.505572907161,5.957239491412158,48.122200754278275,0.24615050967945967
97,231.3860337322909,4.293082445014229,927.7377121083014,0.9339397073695132,1469.1097084669004,5.94609384309155,48.44880158083866,0.18532047102816493
98,231.9208929039497,4.119752811567831,877.1703848764822,0.9180639357286129,1465.118499952115,5.819117379508387,48.163371858012034,0.22577190660205565
99,228.33676664095094,4.233787454900016,877.4968294974718,0.9076964926138661,1466.3271800022385,5.7656284400307465,48.33809954961321,0.24514025291008107
100,229.55966582720566,4.168660718696789,864.2629213626313,0.9031372339485758,1468.854420722878,5.735118958859086,48.05065130138375,0.15183390897205157
101,231.6429228257163,4.2980807140479325,917.9507872378391,0.921989118808234,1471.3471207119933,6.042191248858975,48.71287335841346,0.18087242250818242
102,231.5614141576185,4.1065861751702215,859.9923890732096,0.9043727621858371,1474.6651656677202,5.563442961238695,48.58661175091962,0.1730717244532823
103,228.9386370583993,4.154989930723937,887.1377063496391,0.932614084530682,1472.596308008355,5.793323505017902,48.85325540040155,0.19872114129577964
104,228.72900000630062,4.116552552212169,872.4545242043869,0.9265906292123439,1472.7740118689258,5.6798256083983265,48.23982848839554,0.21037655839690994
105,229.5104959386223,4.175384458456664,875.1436836124403,0.91323035959454,1467.914332218747,5.56367146012986,48.70380764811912,0.23140095957037932
106,231.5109075487008,4.131452887457145,872.0406103338023,0.9117220283985327,1467.1522530738898,5.74985109237542,48.055351974987396,0.23955178560923435
107,228.44612522426735,4.269526718227999,916.7723561773593,0.9399353374869737,1471.5240999208243,6.086293369445722,48.13972006143714,0.17035122344989176
108,229.20245968407752,4.255784833363942,888.6137514203186,0.9109910143063891,1467.2677924416355,5.784140134356388,48.52409115170077,0.2414397277487357
109,228.3830318142739,4.1406239471496695,851.1299612500152,0.9000492103299916,1470.6521915628869,5.513368539030972,49.13105134693655,0.18784897943887735
110,231.62829312499525,4.133248395023731,865.0226138720507,0.903533685470039,1472.0966255968763,5.5734292635267435,49.13429019067916,0.19229595238428326
111,231.24177119709543,4.196948680063825,876.6725025643966,0.9033112912920662,1469.6726944369848,5.63536066005661,48.28451770551252,0.18358544182073744
112,231.09736215111207,4.141157372306246,877.2128896688836,0.9166177888621517,1466.3553694575849,5.759549789363124,48.71008228397726,0.19018689910555986
113,231.8791161609657,4.231381676837644,904.8769048954624,0.9222436347892514,1472.6832875128578,5.815198178163386,48.44963313186667,0.20364245362788228
114,229.30633864584757,4.175284025061352,871.3865349658994,0.910141171935078,1465.5008399835474,5.633278259887396,48.34729207354839,0.15292645450736042
115,228.64254559933835,4.190746933597876,863.4430118787373,0.9011253274704395,1473.6472727530374,5.514610484011584,49.31780232338735,0.18903313373448766
116,230.8345896323961,4.153137713010346,884.397339317689,0.9225081436544685,1467.4695597835603,5.651797493900874,48.62683217882332,0.19309315693113732
117,230.0020440742438,4.25091265574604,890.8625533301102,0.911164575704794,1471.6450007036674,5.728075821917725,48.633039454536814,0.24878428895979204
118,230.218004044714,4.153637789830102,894.5583631328326,0.9354934991680657,1465.1287816914187,5.894418859586945,48.55690499193879,0.22850518025994676
119,228.50992035960465,4.123595779651712,854.9120970088035,0.9072778681672445,1467.5105728419908,5.431919740672065,48.74477284726017,0.19118546912504492
120,230.59436405035004,4.2237521174695605,877.6210822680389,0.9010729165102203,1466.717145866971,5.7220192040408975,49.2533873519524,0.24757363000782623
121,229.90900719657088,4.107242710095355,882.7858928772193,0.9348652802237531,1465.9796806087784,5.704642210718317,49.14365840398646,0.192697683859746
122,231.84606570615802,4.206113512061166,900.5730565641971,0.9235028286429434,1472.3463499798459,5.7686219161626315,49.56224544206495,0.19038977263060305
123,230.5347956574752,4.120838171661554,861.2018394851513,0.9065315100288353,1473.3260248518734,5.437573717038363,49.04579868924378,0.22679357430715213
124,229.33796743128838,4.14571599005145,891.8607228128037,0.9380403767300125,1473.945988566029,5.630638976550185,48.71710315115988,0.1794228833115064
125,230.40744829758415,4.2658726139089,888.2490909770694,0.9037126779031258,1466.3547300179007,5.603248696552433,48.94926172561477,0.1927968208100696
126,231.3023381433056,4.293147682102319,914.6586820396421,0.9210924233956465,1466.0866148131677,5.958361521057529,49.671230752883226,0.20633444369459367
127,230.99306146832478,4.247616910020201,892.6970976036106,0.9098291495646452,1473.077541254373,5.739558590211177,49.38979076251635,0.1975440999375716
128,230.82395356142237,4.197656534837489,886.5074189751842,0.9149441795436971,1474.3350246767066,5.7739054931557225,48.78903856692721,0.1697928980119962
129,230.0322439369506,4.280437375521805,915.7816811939339,0.9300688269652062,1465.9331749302687,5.984903444499382,49.26170377272076,0.18374654334487417
